Potential,Current,Potential_vs_Fc
0.0,-5.424e-06,-0.629
0.001,-5.304e-06,-0.628
0.002,-5.234e-06,-0.627
0.003,-5.187e-06,-0.626
0.004,-5.14e-06,-0.625
0.005,-5.107e-06,-0.624
0.006,-5.07e-06,-0.623
0.007,-5.039e-06,-0.622
0.008,-5.001e-06,-0.621
0.009,-4.972e-06,-0.62
0.01,-4.937e-06,-0.619
0.011,-4.911e-06,-0.618
0.012,-4.876e-06,-0.617
0.013,-4.851e-06,-0.616
0.014,-4.82e-06,-0.615
0.015,-4.796e-06,-0.614
0.016,-4.767e-06,-0.613
0.017,-4.743e-06,-0.612
0.018,-4.712e-06,-0.611
0.019,-4.69e-06,-0.61
0.02,-4.661e-06,-0.609
0.021,-4.641e-06,-0.608
0.022,-4.615e-06,-0.607
0.023,-4.589e-06,-0.606
0.024,-4.564e-06,-0.605
0.025,-4.545e-06,-0.604
0.026,-4.517e-06,-0.603
0.027,-4.5e-06,-0.602
0.028,-4.474e-06,-0.601
0.029,-4.457e-06,-0.6
0.03,-4.431e-06,-0.599
0.031,-4.411e-06,-0.598
0.032,-4.385e-06,-0.597
0.033,-4.367e-06,-0.596
0.034,-4.343e-06,-0.595
0.035,-4.326e-06,-0.594
0.036,-4.302e-06,-0.593
0.037,-4.285e-06,-0.592
0.038,-4.259e-06,-0.591
0.039,-4.241e-06,-0.59
0.04,-4.217e-06,-0.589
0.041,-4.2e-06,-0.588
0.042,-4.175e-06,-0.587
0.043,-4.16e-06,-0.586
0.044,-4.135e-06,-0.585
0.045,-4.119e-06,-0.584
0.046,-4.096e-06,-0.583
0.047,-4.08e-06,-0.582
0.048,-4.057e-06,-0.581
0.049,-4.043e-06,-0.58
0.05,-4.021e-06,-0.579
0.051,-4.007e-06,-0.578
0.052,-3.985e-06,-0.577
0.053,-3.966e-06,-0.576
0.054,-3.945e-06,-0.575
0.055,-3.929e-06,-0.574
0.056,-3.909e-06,-0.573
0.057,-3.892e-06,-0.572
0.058,-3.872e-06,-0.571
0.059,-3.857e-06,-0.5700000000000001
0.06,-3.834e-06,-0.569
0.061,-3.821e-06,-0.5680000000000001
0.062,-3.797e-06,-0.567
0.063,-3.784e-06,-0.5660000000000001
0.064,-3.762e-06,-0.565
0.065,-3.749e-06,-0.5640000000000001
0.066,-3.73e-06,-0.563
0.067,-3.716e-06,-0.562
0.068,-3.695e-06,-0.5609999999999999
0.069,-3.682e-06,-0.56
0.07,-3.662e-06,-0.5589999999999999
0.071,-3.648e-06,-0.558
0.072,-3.628e-06,-0.557
0.073,-3.615e-06,-0.556
0.074,-3.595e-06,-0.555
0.075,-3.581e-06,-0.554
0.076,-3.561e-06,-0.553
0.077,-3.546e-06,-0.552
0.078,-3.528e-06,-0.551
0.079,-3.514e-06,-0.55
0.08,-3.493e-06,-0.549
0.081,-3.48e-06,-0.548
0.082,-3.462e-06,-0.547
0.083,-3.448e-06,-0.546
0.084,-3.428e-06,-0.545
0.085,-3.416e-06,-0.544
0.086,-3.398e-06,-0.543
0.087,-3.384e-06,-0.542
0.088,-3.366e-06,-0.541
0.089,-3.353e-06,-0.54
0.09,-3.333e-06,-0.539
0.091,-3.321e-06,-0.538
0.092,-3.302e-06,-0.537
0.093,-3.291e-06,-0.536
0.094,-3.272e-06,-0.535
0.095,-3.26e-06,-0.534
0.096,-3.24e-06,-0.533
0.097,-3.228e-06,-0.532
0.098,-3.209e-06,-0.531
0.099,-3.197e-06,-0.53
0.1,-3.18e-06,-0.529
0.101,-3.17e-06,-0.528
0.102,-3.15e-06,-0.527
0.103,-3.137e-06,-0.526
0.104,-3.121e-06,-0.525
0.105,-3.109e-06,-0.524
0.106,-3.09e-06,-0.523
0.107,-3.08e-06,-0.522
0.108,-3.061e-06,-0.521
0.109,-3.049e-06,-0.52
0.11,-3.033e-06,-0.519
0.111,-3.02e-06,-0.518
0.112,-3.002e-06,-0.517
0.113,-2.99e-06,-0.516
0.114,-2.973e-06,-0.515
0.115,-2.961e-06,-0.514
0.116,-2.942e-06,-0.513
0.117,-2.933e-06,-0.512
0.118,-2.916e-06,-0.511
0.119,-2.904e-06,-0.51
0.12,-2.889e-06,-0.509
0.121,-2.878e-06,-0.508
0.122,-2.861e-06,-0.507
0.123,-2.85e-06,-0.506
0.124,-2.833e-06,-0.505
0.125,-2.821e-06,-0.504
0.126,-2.805e-06,-0.503
0.127,-2.793e-06,-0.502
0.128,-2.775e-06,-0.501
0.129,-2.764e-06,-0.5
0.13,-2.747e-06,-0.499
0.131,-2.736e-06,-0.498
0.132,-2.719e-06,-0.497
0.133,-2.709e-06,-0.496
0.134,-2.692e-06,-0.495
0.135,-2.68e-06,-0.494
0.136,-2.666e-06,-0.493
0.137,-2.654e-06,-0.492
0.138,-2.638e-06,-0.491
0.139,-2.627e-06,-0.49
0.14,-2.611e-06,-0.489
0.141,-2.602e-06,-0.488
0.142,-2.585e-06,-0.487
0.143,-2.577e-06,-0.486
0.144,-2.559e-06,-0.485
0.145,-2.551e-06,-0.484
0.146,-2.535e-06,-0.483
0.147,-2.524e-06,-0.482
0.148,-2.507e-06,-0.481
0.149,-2.499e-06,-0.48
0.15,-2.482e-06,-0.479
0.151,-2.471e-06,-0.478
0.152,-2.455e-06,-0.477
0.153,-2.445e-06,-0.476
0.154,-2.429e-06,-0.475
0.155,-2.42e-06,-0.474
0.156,-2.405e-06,-0.473
0.157,-2.396e-06,-0.472
0.158,-2.382e-06,-0.471
0.159,-2.371e-06,-0.47
0.16,-2.356e-06,-0.469
0.161,-2.348e-06,-0.46799999999999997
0.162,-2.332e-06,-0.46699999999999997
0.163,-2.323e-06,-0.46599999999999997
0.164,-2.306e-06,-0.46499999999999997
0.165,-2.295e-06,-0.46399999999999997
0.166,-2.28e-06,-0.46299999999999997
0.167,-2.269e-06,-0.46199999999999997
0.168,-2.255e-06,-0.46099999999999997
0.169,-2.244e-06,-0.45999999999999996
0.17,-2.228e-06,-0.45899999999999996
0.171,-2.221e-06,-0.45799999999999996
0.172,-2.203e-06,-0.457
0.173,-2.194e-06,-0.456
0.174,-2.177e-06,-0.455
0.175,-2.168e-06,-0.454
0.176,-2.152e-06,-0.453
0.177,-2.144e-06,-0.452
0.178,-2.129e-06,-0.451
0.179,-2.119e-06,-0.45
0.18,-2.103e-06,-0.449
0.181,-2.095e-06,-0.448
0.182,-2.078e-06,-0.447
0.183,-2.07e-06,-0.446
0.184,-2.055e-06,-0.445
0.185,-2.045e-06,-0.444
0.186,-2.029e-06,-0.443
0.187,-2.02e-06,-0.442
0.188,-2.003e-06,-0.441
0.189,-1.996e-06,-0.44
0.19,-1.978e-06,-0.439
0.191,-1.971e-06,-0.438
0.192,-1.954e-06,-0.437
0.193,-1.945e-06,-0.436
0.194,-1.931e-06,-0.435
0.195,-1.921e-06,-0.434
0.196,-1.906e-06,-0.433
0.197,-1.899e-06,-0.432
0.198,-1.882e-06,-0.431
0.199,-1.873e-06,-0.43
0.2,-1.857e-06,-0.429
0.201,-1.849e-06,-0.428
0.202,-1.833e-06,-0.427
0.203,-1.824e-06,-0.426
0.204,-1.81e-06,-0.42500000000000004
0.205,-1.797e-06,-0.42400000000000004
0.206,-1.783e-06,-0.42300000000000004
0.207,-1.774e-06,-0.42200000000000004
0.208,-1.76e-06,-0.42100000000000004
0.209,-1.751e-06,-0.42000000000000004
0.21,-1.736e-06,-0.41900000000000004
0.211,-1.726e-06,-0.41800000000000004
0.212,-1.71e-06,-0.41700000000000004
0.213,-1.704e-06,-0.41600000000000004
0.214,-1.688e-06,-0.41500000000000004
0.215,-1.679e-06,-0.41400000000000003
0.216,-1.665e-06,-0.41300000000000003
0.217,-1.655e-06,-0.41200000000000003
0.218,-1.639e-06,-0.41100000000000003
0.219,-1.632e-06,-0.41000000000000003
0.22,-1.615e-06,-0.40900000000000003
0.221,-1.608e-06,-0.40800000000000003
0.222,-1.591e-06,-0.40700000000000003
0.223,-1.583e-06,-0.406
0.224,-1.568e-06,-0.405
0.225,-1.559e-06,-0.404
0.226,-1.545e-06,-0.403
0.227,-1.536e-06,-0.402
0.228,-1.521e-06,-0.401
0.229,-1.515e-06,-0.4
0.23,-1.499e-06,-0.399
0.231,-1.49e-06,-0.398
0.232,-1.475e-06,-0.397
0.233,-1.467e-06,-0.396
0.234,-1.453e-06,-0.395
0.235,-1.445e-06,-0.394
0.236,-1.429e-06,-0.393
0.237,-1.421e-06,-0.392
0.238,-1.407e-06,-0.391
0.239,-1.398e-06,-0.39
0.24,-1.384e-06,-0.389
0.241,-1.376e-06,-0.388
0.242,-1.362e-06,-0.387
0.243,-1.354e-06,-0.386
0.244,-1.338e-06,-0.385
0.245,-1.333e-06,-0.384
0.246,-1.316e-06,-0.383
0.247,-1.309e-06,-0.382
0.248,-1.295e-06,-0.381
0.249,-1.286e-06,-0.38
0.25,-1.271e-06,-0.379
0.251,-1.264e-06,-0.378
0.252,-1.249e-06,-0.377
0.253,-1.242e-06,-0.376
0.254,-1.23e-06,-0.375
0.255,-1.221e-06,-0.374
0.256,-1.207e-06,-0.373
0.257,-1.199e-06,-0.372
0.258,-1.186e-06,-0.371
0.259,-1.178e-06,-0.37
0.26,-1.164e-06,-0.369
0.261,-1.158e-06,-0.368
0.262,-1.144e-06,-0.367
0.263,-1.134e-06,-0.366
0.264,-1.123e-06,-0.365
0.265,-1.115e-06,-0.364
0.266,-1.102e-06,-0.363
0.267,-1.095e-06,-0.362
0.268,-1.082e-06,-0.361
0.269,-1.075e-06,-0.36
0.27,-1.061e-06,-0.359
0.271,-1.054e-06,-0.358
0.272,-1.039e-06,-0.357
0.273,-1.033e-06,-0.356
0.274,-1.018e-06,-0.355
0.275,-1.01e-06,-0.354
0.276,-9.963e-07,-0.353
0.277,-9.908e-07,-0.352
0.278,-9.779e-07,-0.351
0.279,-9.697e-07,-0.35
0.28,-9.58e-07,-0.349
0.281,-9.503e-07,-0.348
0.282,-9.375e-07,-0.34700000000000003
0.283,-9.317e-07,-0.34600000000000003
0.284,-9.186e-07,-0.34500000000000003
0.285,-9.113e-07,-0.34400000000000003
0.286,-8.984e-07,-0.343
0.287,-8.912e-07,-0.342
0.288,-8.766e-07,-0.341
0.289,-8.722e-07,-0.34
0.29,-8.594e-07,-0.339
0.291,-8.512e-07,-0.338
0.292,-8.363e-07,-0.337
0.293,-8.31e-07,-0.336
0.294,-8.167e-07,-0.335
0.295,-8.089e-07,-0.334
0.296,-7.978e-07,-0.333
0.297,-7.903e-07,-0.332
0.298,-7.766e-07,-0.331
0.299,-7.701e-07,-0.33
0.3,-7.569e-07,-0.329
0.301,-7.509e-07,-0.328
0.302,-7.386e-07,-0.327
0.303,-7.308e-07,-0.326
0.304,-7.204e-07,-0.325
0.305,-7.196e-07,-0.324
0.306,-7.07e-07,-0.323
0.307,-6.923e-07,-0.322
0.308,-6.784e-07,-0.321
0.309,-6.747e-07,-0.32
0.31,-6.626e-07,-0.319
0.311,-6.555e-07,-0.318
0.312,-6.433e-07,-0.317
0.313,-6.376e-07,-0.316
0.314,-6.246e-07,-0.315
0.315,-6.181e-07,-0.314
0.316,-6.029e-07,-0.313
0.317,-5.982e-07,-0.312
0.318,-5.836e-07,-0.311
0.319,-5.766e-07,-0.31
0.32,-5.607e-07,-0.309
0.321,-5.543e-07,-0.308
0.322,-5.417e-07,-0.307
0.323,-5.326e-07,-0.306
0.324,-5.192e-07,-0.305
0.325,-5.131e-07,-0.304
0.326,-5.004e-07,-0.303
0.327,-4.917e-07,-0.302
0.328,-4.808e-07,-0.301
0.329,-4.735e-07,-0.3
0.33,-4.619e-07,-0.299
0.331,-4.556e-07,-0.298
0.332,-4.446e-07,-0.297
0.333,-4.378e-07,-0.296
0.334,-4.255e-07,-0.295
0.335,-4.197e-07,-0.294
0.336,-4.073e-07,-0.293
0.337,-4.011e-07,-0.292
0.338,-3.895e-07,-0.291
0.339,-3.832e-07,-0.29
0.34,-3.7e-07,-0.289
0.341,-3.638e-07,-0.288
0.342,-3.526e-07,-0.287
0.343,-3.452e-07,-0.286
0.344,-3.349e-07,-0.28500000000000003
0.345,-3.271e-07,-0.28400000000000003
0.346,-3.126e-07,-0.28300000000000003
0.347,-3.085e-07,-0.28200000000000003
0.348,-2.956e-07,-0.281
0.349,-2.896e-07,-0.28
0.35,-2.781e-07,-0.279
0.351,-2.713e-07,-0.278
0.352,-2.594e-07,-0.277
0.353,-2.525e-07,-0.276
0.354,-2.407e-07,-0.275
0.355,-2.346e-07,-0.274
0.356,-2.219e-07,-0.273
0.357,-2.167e-07,-0.272
0.358,-2.056e-07,-0.271
0.359,-1.974e-07,-0.27
0.36,-1.878e-07,-0.269
0.361,-1.818e-07,-0.268
0.362,-1.702e-07,-0.267
0.363,-1.65e-07,-0.266
0.364,-1.533e-07,-0.265
0.365,-1.466e-07,-0.264
0.366,-1.345e-07,-0.263
0.367,-1.289e-07,-0.262
0.368,-1.173e-07,-0.261
0.369,-1.112e-07,-0.26
0.37,-1.002e-07,-0.259
0.371,-9.416e-08,-0.258
0.372,-8.189e-08,-0.257
0.373,-7.639e-08,-0.256
0.374,-6.441e-08,-0.255
0.375,-5.705e-08,-0.254
0.376,-4.654e-08,-0.253
0.377,-4.006e-08,-0.252
0.378,-2.896e-08,-0.251
0.379,-2.307e-08,-0.25
0.38,-1.06e-08,-0.249
0.381,-6.48e-09,-0.248
0.382,6.873e-09,-0.247
0.383,1.365e-08,-0.246
0.384,2.445e-08,-0.245
0.385,2.867e-08,-0.244
0.386,4.124e-08,-0.243
0.387,4.703e-08,-0.242
0.388,5.911e-08,-0.241
0.389,6.382e-08,-0.24
0.39,7.59e-08,-0.239
0.391,8.208e-08,-0.238
0.392,9.131e-08,-0.237
0.393,9.73e-08,-0.236
0.394,1.09e-07,-0.235
0.395,1.155e-07,-0.23399999999999999
0.396,1.277e-07,-0.23299999999999998
0.397,1.332e-07,-0.23199999999999998
0.398,1.432e-07,-0.23099999999999998
0.399,1.504e-07,-0.22999999999999998
0.4,1.617e-07,-0.22899999999999998
0.401,1.677e-07,-0.22799999999999998
0.402,1.775e-07,-0.22699999999999998
0.403,1.846e-07,-0.22599999999999998
0.404,1.962e-07,-0.22499999999999998
0.405,2.005e-07,-0.22399999999999998
0.406,2.145e-07,-0.22299999999999998
0.407,2.195e-07,-0.22200000000000003
0.408,2.294e-07,-0.22100000000000003
0.409,2.382e-07,-0.22000000000000003
0.41,2.53e-07,-0.21900000000000003
0.411,2.552e-07,-0.21800000000000003
0.412,2.668e-07,-0.21700000000000003
0.413,2.712e-07,-0.21600000000000003
0.414,2.836e-07,-0.21500000000000002
0.415,2.894e-07,-0.21400000000000002
0.416,3.006e-07,-0.21300000000000002
0.417,3.061e-07,-0.21200000000000002
0.418,3.184e-07,-0.21100000000000002
0.419,3.241e-07,-0.21000000000000002
0.42,3.351e-07,-0.20900000000000002
0.421,3.394e-07,-0.20800000000000002
0.422,3.517e-07,-0.20700000000000002
0.423,3.581e-07,-0.20600000000000002
0.424,3.669e-07,-0.20500000000000002
0.425,3.75e-07,-0.20400000000000001
0.426,3.867e-07,-0.203
0.427,3.91e-07,-0.202
0.428,4.035e-07,-0.201
0.429,4.08e-07,-0.2
0.43,4.201e-07,-0.199
0.431,4.252e-07,-0.198
0.432,4.363e-07,-0.197
0.433,4.423e-07,-0.196
0.434,4.526e-07,-0.195
0.435,4.604e-07,-0.194
0.436,4.724e-07,-0.193
0.437,4.762e-07,-0.192
0.438,4.878e-07,-0.191
0.439,4.939e-07,-0.19
0.44,5.051e-07,-0.189
0.441,5.101e-07,-0.188
0.442,5.222e-07,-0.187
0.443,5.284e-07,-0.186
0.444,5.391e-07,-0.185
0.445,5.449e-07,-0.184
0.446,5.561e-07,-0.183
0.447,5.612e-07,-0.182
0.448,5.726e-07,-0.181
0.449,5.789e-07,-0.18
0.45,5.885e-07,-0.179
0.451,5.948e-07,-0.178
0.452,6.06e-07,-0.177
0.453,6.114e-07,-0.176
0.454,6.221e-07,-0.175
0.455,6.286e-07,-0.174
0.456,6.386e-07,-0.173
0.457,6.446e-07,-0.172
0.458,6.571e-07,-0.17099999999999999
0.459,6.641e-07,-0.16999999999999998
0.46,6.735e-07,-0.16899999999999998
0.461,6.817e-07,-0.16799999999999998
0.462,6.91e-07,-0.16699999999999998
0.463,6.98e-07,-0.16599999999999998
0.464,7.081e-07,-0.16499999999999998
0.465,7.144e-07,-0.16399999999999998
0.466,7.246e-07,-0.16299999999999998
0.467,7.312e-07,-0.16199999999999998
0.468,7.432e-07,-0.16099999999999998
0.469,7.481e-07,-0.16000000000000003
0.47,7.589e-07,-0.15900000000000003
0.471,7.65e-07,-0.15800000000000003
0.472,7.761e-07,-0.15700000000000003
0.473,7.819e-07,-0.15600000000000003
0.474,7.935e-07,-0.15500000000000003
0.475,8e-07,-0.15400000000000003
0.476,8.099e-07,-0.15300000000000002
0.477,8.157e-07,-0.15200000000000002
0.478,8.263e-07,-0.15100000000000002
0.479,8.323e-07,-0.15000000000000002
0.48,8.428e-07,-0.14900000000000002
0.481,8.492e-07,-0.14800000000000002
0.482,8.604e-07,-0.14700000000000002
0.483,8.663e-07,-0.14600000000000002
0.484,8.78e-07,-0.14500000000000002
0.485,8.828e-07,-0.14400000000000002
0.486,8.958e-07,-0.14300000000000002
0.487,9.017e-07,-0.14200000000000002
0.488,9.121e-07,-0.14100000000000001
0.489,9.19e-07,-0.14
0.49,9.303e-07,-0.139
0.491,9.358e-07,-0.138
0.492,9.484e-07,-0.137
0.493,9.535e-07,-0.136
0.494,9.627e-07,-0.135
0.495,9.696e-07,-0.134
0.496,9.79e-07,-0.133
0.497,9.864e-07,-0.132
0.498,9.965e-07,-0.131
0.499,1.003e-06,-0.13
0.5,1.015e-06,-0.129
0.501,1.019e-06,-0.128
0.502,1.031e-06,-0.127
0.503,1.038e-06,-0.126
0.504,1.047e-06,-0.125
0.505,1.054e-06,-0.124
0.506,1.066e-06,-0.123
0.507,1.071e-06,-0.122
0.508,1.083e-06,-0.121
0.509,1.09e-06,-0.12
0.51,1.101e-06,-0.119
0.511,1.108e-06,-0.118
0.512,1.12e-06,-0.11699999999999999
0.513,1.127e-06,-0.11599999999999999
0.514,1.136e-06,-0.11499999999999999
0.515,1.143e-06,-0.11399999999999999
0.516,1.155e-06,-0.11299999999999999
0.517,1.16e-06,-0.11199999999999999
0.518,1.172e-06,-0.11099999999999999
0.519,1.179e-06,-0.10999999999999999
0.52,1.189e-06,-0.10899999999999999
0.521,1.199e-06,-0.10799999999999998
0.522,1.209e-06,-0.10699999999999998
0.523,1.215e-06,-0.10599999999999998
0.524,1.226e-06,-0.10499999999999998
0.525,1.234e-06,-0.10399999999999998
0.526,1.244e-06,-0.10299999999999998
0.527,1.25e-06,-0.10199999999999998
0.528,1.26e-06,-0.10099999999999998
0.529,1.266e-06,-0.09999999999999998
0.53,1.277e-06,-0.09899999999999998
0.531,1.284e-06,-0.09799999999999998
0.532,1.295e-06,-0.09699999999999998
0.533,1.3e-06,-0.09599999999999997
0.534,1.312e-06,-0.09499999999999997
0.535,1.32e-06,-0.09399999999999997
0.536,1.33e-06,-0.09299999999999997
0.537,1.336e-06,-0.09199999999999997
0.538,1.35e-06,-0.09099999999999997
0.539,1.356e-06,-0.08999999999999997
0.54,1.366e-06,-0.08899999999999997
0.541,1.368e-06,-0.08799999999999997
0.542,1.379e-06,-0.08699999999999997
0.543,1.391e-06,-0.08599999999999997
0.544,1.403e-06,-0.08499999999999996
0.545,1.409e-06,-0.08399999999999996
0.546,1.419e-06,-0.08299999999999996
0.547,1.428e-06,-0.08199999999999996
0.548,1.439e-06,-0.08099999999999996
0.549,1.445e-06,-0.07999999999999996
0.55,1.456e-06,-0.07899999999999996
0.551,1.465e-06,-0.07799999999999996
0.552,1.472e-06,-0.07699999999999996
0.553,1.48e-06,-0.07599999999999996
0.554,1.49e-06,-0.07499999999999996
0.555,1.497e-06,-0.07399999999999995
0.556,1.507e-06,-0.07299999999999995
0.557,1.515e-06,-0.07199999999999995
0.558,1.524e-06,-0.07099999999999995
0.559,1.533e-06,-0.06999999999999995
0.56,1.544e-06,-0.06899999999999995
0.561,1.55e-06,-0.06799999999999995
0.562,1.562e-06,-0.06699999999999995
0.563,1.571e-06,-0.06600000000000006
0.564,1.584e-06,-0.06500000000000006
0.565,1.588e-06,-0.06400000000000006
0.566,1.601e-06,-0.06300000000000006
0.567,1.609e-06,-0.062000000000000055
0.568,1.619e-06,-0.061000000000000054
0.569,1.626e-06,-0.06000000000000005
0.57,1.638e-06,-0.05900000000000005
0.571,1.646e-06,-0.05800000000000005
0.572,1.657e-06,-0.05700000000000005
0.573,1.663e-06,-0.05600000000000005
0.574,1.675e-06,-0.05500000000000005
0.575,1.683e-06,-0.05400000000000005
0.576,1.695e-06,-0.05300000000000005
0.577,1.7e-06,-0.052000000000000046
0.578,1.71e-06,-0.051000000000000045
0.579,1.719e-06,-0.050000000000000044
0.58,1.731e-06,-0.049000000000000044
0.581,1.736e-06,-0.04800000000000004
0.582,1.747e-06,-0.04700000000000004
0.583,1.754e-06,-0.04600000000000004
0.584,1.764e-06,-0.04500000000000004
0.585,1.771e-06,-0.04400000000000004
0.586,1.782e-06,-0.04300000000000004
0.587,1.79e-06,-0.04200000000000004
0.588,1.8e-06,-0.041000000000000036
0.589,1.809e-06,-0.040000000000000036
0.59,1.819e-06,-0.039000000000000035
0.591,1.827e-06,-0.038000000000000034
0.592,1.837e-06,-0.03700000000000003
0.593,1.844e-06,-0.03600000000000003
0.594,1.854e-06,-0.03500000000000003
0.595,1.862e-06,-0.03400000000000003
0.596,1.874e-06,-0.03300000000000003
0.597,1.881e-06,-0.03200000000000003
0.598,1.891e-06,-0.031000000000000028
0.599,1.899e-06,-0.030000000000000027
0.6,1.909e-06,-0.029000000000000026
0.601,1.917e-06,-0.028000000000000025
0.602,1.928e-06,-0.027000000000000024
0.603,1.934e-06,-0.026000000000000023
0.604,1.944e-06,-0.025000000000000022
0.605,1.95e-06,-0.02400000000000002
0.606,1.962e-06,-0.02300000000000002
0.607,1.969e-06,-0.02200000000000002
0.608,1.981e-06,-0.02100000000000002
0.609,1.986e-06,-0.020000000000000018
0.61,1.996e-06,-0.019000000000000017
0.611,2.005e-06,-0.018000000000000016
0.612,2.014e-06,-0.017000000000000015
0.613,2.021e-06,-0.016000000000000014
0.614,2.032e-06,-0.015000000000000013
0.615,2.042e-06,-0.014000000000000012
0.616,2.05e-06,-0.013000000000000012
0.617,2.056e-06,-0.01200000000000001
0.618,2.067e-06,-0.01100000000000001
0.619,2.073e-06,-0.010000000000000009
0.62,2.084e-06,-0.009000000000000008
0.621,2.089e-06,-0.008000000000000007
0.622,2.101e-06,-0.007000000000000006
0.623,2.108e-06,-0.006000000000000005
0.624,2.116e-06,-0.0050000000000000044
0.625,2.125e-06,-0.0040000000000000036
0.626,2.133e-06,-0.0030000000000000027
0.627,2.142e-06,-0.0020000000000000018
0.628,2.153e-06,-0.0010000000000000009
0.629,2.157e-06,0.0
0.63,2.168e-06,0.0010000000000000009
0.631,2.176e-06,0.0020000000000000018
0.632,2.183e-06,0.0030000000000000027
0.633,2.191e-06,0.0040000000000000036
0.634,2.201e-06,0.0050000000000000044
0.635,2.207e-06,0.006000000000000005
0.636,2.217e-06,0.007000000000000006
0.637,2.222e-06,0.008000000000000007
0.638,2.232e-06,0.009000000000000008
0.639,2.24e-06,0.010000000000000009
0.64,2.25e-06,0.01100000000000001
0.641,2.257e-06,0.01200000000000001
0.642,2.264e-06,0.013000000000000012
0.643,2.272e-06,0.014000000000000012
0.644,2.282e-06,0.015000000000000013
0.645,2.288e-06,0.016000000000000014
0.646,2.298e-06,0.017000000000000015
0.647,2.304e-06,0.018000000000000016
0.648,2.312e-06,0.019000000000000017
0.649,2.32e-06,0.020000000000000018
0.65,2.329e-06,0.02100000000000002
0.651,2.334e-06,0.02200000000000002
0.652,2.344e-06,0.02300000000000002
0.653,2.35e-06,0.02400000000000002
0.654,2.358e-06,0.025000000000000022
0.655,2.365e-06,0.026000000000000023
0.656,2.374e-06,0.027000000000000024
0.657,2.379e-06,0.028000000000000025
0.658,2.383e-06,0.029000000000000026
0.659,2.395e-06,0.030000000000000027
0.66,2.405e-06,0.031000000000000028
0.661,2.41e-06,0.03200000000000003
0.662,2.418e-06,0.03300000000000003
0.663,2.426e-06,0.03400000000000003
0.664,2.434e-06,0.03500000000000003
0.665,2.441e-06,0.03600000000000003
0.666,2.451e-06,0.03700000000000003
0.667,2.455e-06,0.038000000000000034
0.668,2.463e-06,0.039000000000000035
0.669,2.47e-06,0.040000000000000036
0.67,2.477e-06,0.041000000000000036
0.671,2.486e-06,0.04200000000000004
0.672,2.493e-06,0.04300000000000004
0.673,2.499e-06,0.04400000000000004
0.674,2.505e-06,0.04500000000000004
0.675,2.512e-06,0.04600000000000004
0.676,2.52e-06,0.04700000000000004
0.677,2.525e-06,0.04800000000000004
0.678,2.534e-06,0.049000000000000044
0.679,2.541e-06,0.050000000000000044
0.68,2.548e-06,0.051000000000000045
0.681,2.553e-06,0.052000000000000046
0.682,2.561e-06,0.05300000000000005
0.683,2.568e-06,0.05400000000000005
0.684,2.576e-06,0.05500000000000005
0.685,2.582e-06,0.05600000000000005
0.686,2.589e-06,0.05700000000000005
0.687,2.595e-06,0.05800000000000005
